# Force βfL, Extension z/L, Persistence Length λ
1.6393e-01,    3.3084e-03,    3.1250e-02
1.6545e-01,    3.3391e-03,    3.1250e-02
1.6698e-01,    3.3700e-03,    3.1250e-02
1.6852e-01,    3.4011e-03,    3.1250e-02
1.7009e-01,    3.4326e-03,    3.1250e-02
1.7166e-01,    3.4644e-03,    3.1250e-02
1.7325e-01,    3.4965e-03,    3.1250e-02
1.7485e-01,    3.5289e-03,    3.1250e-02
1.7647e-01,    3.5615e-03,    3.1250e-02
1.7811e-01,    3.5945e-03,    3.1250e-02
1.7976e-01,    3.6278e-03,    3.1250e-02
1.8142e-01,    3.6614e-03,    3.1250e-02
1.8310e-01,    3.6953e-03,    3.1250e-02
1.8479e-01,    3.7295e-03,    3.1250e-02
1.8651e-01,    3.7640e-03,    3.1250e-02
1.8823e-01,    3.7989e-03,    3.1250e-02
1.8997e-01,    3.8340e-03,    3.1250e-02
1.9173e-01,    3.8695e-03,    3.1250e-02
1.9351e-01,    3.9054e-03,    3.1250e-02
1.9530e-01,    3.9415e-03,    3.1250e-02
1.9711e-01,    3.9780e-03,    3.1250e-02
1.9893e-01,    4.0149e-03,    3.1250e-02
2.0078e-01,    4.0520e-03,    3.1250e-02
2.0263e-01,    4.0895e-03,    3.1250e-02
2.0451e-01,    4.1274e-03,    3.1250e-02
2.0640e-01,    4.1656e-03,    3.1250e-02
2.0832e-01,    4.2042e-03,    3.1250e-02
2.1024e-01,    4.2431e-03,    3.1250e-02
2.1219e-01,    4.2824e-03,    3.1250e-02
2.1416e-01,    4.3220e-03,    3.1250e-02
2.1614e-01,    4.3620e-03,    3.1250e-02
2.1814e-01,    4.4024e-03,    3.1250e-02
2.2016e-01,    4.4432e-03,    3.1250e-02
2.2220e-01,    4.4843e-03,    3.1250e-02
2.2425e-01,    4.5258e-03,    3.1250e-02
2.2633e-01,    4.5678e-03,    3.1250e-02
2.2843e-01,    4.6100e-03,    3.1250e-02
2.3054e-01,    4.6527e-03,    3.1250e-02
2.3268e-01,    4.6958e-03,    3.1250e-02
2.3483e-01,    4.7393e-03,    3.1250e-02
2.3700e-01,    4.7831e-03,    3.1250e-02
2.3920e-01,    4.8274e-03,    3.1250e-02
2.4141e-01,    4.8721e-03,    3.1250e-02
2.4365e-01,    4.9172e-03,    3.1250e-02
2.4590e-01,    4.9628e-03,    3.1250e-02
2.4818e-01,    5.0087e-03,    3.1250e-02
2.5048e-01,    5.0551e-03,    3.1250e-02
2.5280e-01,    5.1019e-03,    3.1250e-02
2.5514e-01,    5.1491e-03,    3.1250e-02
2.5750e-01,    5.1968e-03,    3.1250e-02
2.5989e-01,    5.2449e-03,    3.1250e-02
2.6229e-01,    5.2935e-03,    3.1250e-02
2.6472e-01,    5.3425e-03,    3.1250e-02
2.6717e-01,    5.3919e-03,    3.1250e-02
2.6964e-01,    5.4418e-03,    3.1250e-02
2.7214e-01,    5.4922e-03,    3.1250e-02
2.7466e-01,    5.5430e-03,    3.1250e-02
2.7720e-01,    5.5944e-03,    3.1250e-02
2.7977e-01,    5.6462e-03,    3.1250e-02
2.8236e-01,    5.6985e-03,    3.1250e-02
2.8497e-01,    5.7512e-03,    3.1250e-02
2.8761e-01,    5.8044e-03,    3.1250e-02
2.9028e-01,    5.8582e-03,    3.1250e-02
2.9296e-01,    5.9124e-03,    3.1250e-02
2.9568e-01,    5.9672e-03,    3.1250e-02
2.9841e-01,    6.0224e-03,    3.1250e-02
3.0118e-01,    6.0781e-03,    3.1250e-02
3.0397e-01,    6.1344e-03,    3.1250e-02
3.0678e-01,    6.1912e-03,    3.1250e-02
3.0962e-01,    6.2485e-03,    3.1250e-02
3.1249e-01,    6.3064e-03,    3.1250e-02
3.1538e-01,    6.3648e-03,    3.1250e-02
3.1830e-01,    6.4237e-03,    3.1250e-02
3.2125e-01,    6.4832e-03,    3.1250e-02
3.2422e-01,    6.5432e-03,    3.1250e-02
3.2722e-01,    6.6038e-03,    3.1250e-02
3.3025e-01,    6.6649e-03,    3.1250e-02
3.3331e-01,    6.7266e-03,    3.1250e-02
3.3640e-01,    6.7889e-03,    3.1250e-02
3.3951e-01,    6.8517e-03,    3.1250e-02
3.4265e-01,    6.9151e-03,    3.1250e-02
3.4583e-01,    6.9792e-03,    3.1250e-02
3.4903e-01,    7.0438e-03,    3.1250e-02
3.5226e-01,    7.1090e-03,    3.1250e-02
3.5552e-01,    7.1748e-03,    3.1250e-02
3.5881e-01,    7.2412e-03,    3.1250e-02
3.6214e-01,    7.3083e-03,    3.1250e-02
3.6549e-01,    7.3759e-03,    3.1250e-02
3.6887e-01,    7.4442e-03,    3.1250e-02
3.7229e-01,    7.5131e-03,    3.1250e-02
3.7573e-01,    7.5827e-03,    3.1250e-02
3.7921e-01,    7.6529e-03,    3.1250e-02
3.8272e-01,    7.7237e-03,    3.1250e-02
3.8627e-01,    7.7952e-03,    3.1250e-02
3.8984e-01,    7.8674e-03,    3.1250e-02
3.9345e-01,    7.9402e-03,    3.1250e-02
3.9710e-01,    8.0137e-03,    3.1250e-02
4.0077e-01,    8.0879e-03,    3.1250e-02
4.0448e-01,    8.1628e-03,    3.1250e-02
4.0823e-01,    8.2383e-03,    3.1250e-02
4.1201e-01,    8.3146e-03,    3.1250e-02
4.1582e-01,    8.3916e-03,    3.1250e-02
4.1967e-01,    8.4693e-03,    3.1250e-02
4.2356e-01,    8.5476e-03,    3.1250e-02
4.2748e-01,    8.6268e-03,    3.1250e-02
4.3144e-01,    8.7066e-03,    3.1250e-02
4.3543e-01,    8.7872e-03,    3.1250e-02
4.3946e-01,    8.8686e-03,    3.1250e-02
4.4353e-01,    8.9507e-03,    3.1250e-02
4.4764e-01,    9.0335e-03,    3.1250e-02
4.5178e-01,    9.1172e-03,    3.1250e-02
4.5597e-01,    9.2016e-03,    3.1250e-02
4.6019e-01,    9.2867e-03,    3.1250e-02
4.6445e-01,    9.3727e-03,    3.1250e-02
4.6875e-01,    9.4595e-03,    3.1250e-02
4.7309e-01,    9.5470e-03,    3.1250e-02
4.7747e-01,    9.6354e-03,    3.1250e-02
4.8189e-01,    9.7246e-03,    3.1250e-02
4.8635e-01,    9.8146e-03,    3.1250e-02
4.9086e-01,    9.9055e-03,    3.1250e-02
4.9540e-01,    9.9972e-03,    3.1250e-02
4.9999e-01,    1.0090e-02,    3.1250e-02
5.0462e-01,    1.0183e-02,    3.1250e-02
5.0929e-01,    1.0277e-02,    3.1250e-02
5.1400e-01,    1.0372e-02,    3.1250e-02
5.1876e-01,    1.0468e-02,    3.1250e-02
5.2357e-01,    1.0565e-02,    3.1250e-02
5.2841e-01,    1.0663e-02,    3.1250e-02
5.3331e-01,    1.0762e-02,    3.1250e-02
5.3824e-01,    1.0862e-02,    3.1250e-02
5.4323e-01,    1.0962e-02,    3.1250e-02
5.4826e-01,    1.1064e-02,    3.1250e-02
5.5333e-01,    1.1166e-02,    3.1250e-02
5.5846e-01,    1.1269e-02,    3.1250e-02
5.6363e-01,    1.1374e-02,    3.1250e-02
5.6885e-01,    1.1479e-02,    3.1250e-02
5.7411e-01,    1.1585e-02,    3.1250e-02
5.7943e-01,    1.1692e-02,    3.1250e-02
5.8479e-01,    1.1801e-02,    3.1250e-02
5.9021e-01,    1.1910e-02,    3.1250e-02
5.9567e-01,    1.2020e-02,    3.1250e-02
6.0119e-01,    1.2131e-02,    3.1250e-02
6.0675e-01,    1.2244e-02,    3.1250e-02
6.1237e-01,    1.2357e-02,    3.1250e-02
6.1804e-01,    1.2471e-02,    3.1250e-02
6.2376e-01,    1.2587e-02,    3.1250e-02
6.2954e-01,    1.2703e-02,    3.1250e-02
6.3537e-01,    1.2821e-02,    3.1250e-02
6.4125e-01,    1.2939e-02,    3.1250e-02
6.4719e-01,    1.3059e-02,    3.1250e-02
6.5318e-01,    1.3180e-02,    3.1250e-02
6.5923e-01,    1.3302e-02,    3.1250e-02
6.6533e-01,    1.3425e-02,    3.1250e-02
6.7149e-01,    1.3549e-02,    3.1250e-02
6.7771e-01,    1.3675e-02,    3.1250e-02
6.8398e-01,    1.3801e-02,    3.1250e-02
6.9031e-01,    1.3929e-02,    3.1250e-02
6.9671e-01,    1.4058e-02,    3.1250e-02
7.0316e-01,    1.4188e-02,    3.1250e-02
7.0967e-01,    1.4319e-02,    3.1250e-02
7.1624e-01,    1.4452e-02,    3.1250e-02
7.2287e-01,    1.4586e-02,    3.1250e-02
7.2956e-01,    1.4721e-02,    3.1250e-02
7.3632e-01,    1.4857e-02,    3.1250e-02
7.4313e-01,    1.4994e-02,    3.1250e-02
7.5001e-01,    1.5133e-02,    3.1250e-02
7.5696e-01,    1.5273e-02,    3.1250e-02
7.6397e-01,    1.5414e-02,    3.1250e-02
7.7104e-01,    1.5557e-02,    3.1250e-02
7.7818e-01,    1.5701e-02,    3.1250e-02
7.8538e-01,    1.5846e-02,    3.1250e-02
7.9265e-01,    1.5993e-02,    3.1250e-02
7.9999e-01,    1.6141e-02,    3.1250e-02
8.0740e-01,    1.6290e-02,    3.1250e-02
8.1488e-01,    1.6441e-02,    3.1250e-02
8.2242e-01,    1.6593e-02,    3.1250e-02
8.3004e-01,    1.6747e-02,    3.1250e-02
8.3772e-01,    1.6902e-02,    3.1250e-02
8.4548e-01,    1.7058e-02,    3.1250e-02
8.5330e-01,    1.7216e-02,    3.1250e-02
8.6120e-01,    1.7375e-02,    3.1250e-02
8.6918e-01,    1.7536e-02,    3.1250e-02
8.7723e-01,    1.7698e-02,    3.1250e-02
8.8535e-01,    1.7862e-02,    3.1250e-02
8.9355e-01,    1.8027e-02,    3.1250e-02
9.0182e-01,    1.8194e-02,    3.1250e-02
9.1017e-01,    1.8362e-02,    3.1250e-02
9.1859e-01,    1.8532e-02,    3.1250e-02
9.2710e-01,    1.8704e-02,    3.1250e-02
9.3568e-01,    1.8877e-02,    3.1250e-02
9.4435e-01,    1.9051e-02,    3.1250e-02
9.5309e-01,    1.9228e-02,    3.1250e-02
9.6191e-01,    1.9405e-02,    3.1250e-02
9.7082e-01,    1.9585e-02,    3.1250e-02
9.7981e-01,    1.9766e-02,    3.1250e-02
9.8888e-01,    1.9949e-02,    3.1250e-02
9.9804e-01,    2.0133e-02,    3.1250e-02
1.0073e+00,    2.0320e-02,    3.1250e-02
1.0166e+00,    2.0508e-02,    3.1250e-02
1.0260e+00,    2.0697e-02,    3.1250e-02
1.0355e+00,    2.0889e-02,    3.1250e-02
1.0451e+00,    2.1082e-02,    3.1250e-02
1.0548e+00,    2.1277e-02,    3.1250e-02
1.0645e+00,    2.1474e-02,    3.1250e-02
1.0744e+00,    2.1672e-02,    3.1250e-02
1.0843e+00,    2.1873e-02,    3.1250e-02
1.0944e+00,    2.2075e-02,    3.1250e-02
1.1045e+00,    2.2279e-02,    3.1250e-02
1.1147e+00,    2.2485e-02,    3.1250e-02
1.1251e+00,    2.2693e-02,    3.1250e-02
1.1355e+00,    2.2903e-02,    3.1250e-02
1.1460e+00,    2.3115e-02,    3.1250e-02
1.1566e+00,    2.3329e-02,    3.1250e-02
1.1673e+00,    2.3544e-02,    3.1250e-02
1.1781e+00,    2.3762e-02,    3.1250e-02
1.1890e+00,    2.3982e-02,    3.1250e-02
1.2000e+00,    2.4204e-02,    3.1250e-02
1.2112e+00,    2.4427e-02,    3.1250e-02
1.2224e+00,    2.4653e-02,    3.1250e-02
1.2337e+00,    2.4881e-02,    3.1250e-02
1.2451e+00,    2.5111e-02,    3.1250e-02
1.2566e+00,    2.5344e-02,    3.1250e-02
1.2683e+00,    2.5578e-02,    3.1250e-02
1.2800e+00,    2.5814e-02,    3.1250e-02
1.2919e+00,    2.6053e-02,    3.1250e-02
1.3038e+00,    2.6294e-02,    3.1250e-02
1.3159e+00,    2.6537e-02,    3.1250e-02
1.3281e+00,    2.6782e-02,    3.1250e-02
1.3404e+00,    2.7030e-02,    3.1250e-02
1.3528e+00,    2.7280e-02,    3.1250e-02
1.3653e+00,    2.7532e-02,    3.1250e-02
1.3780e+00,    2.7786e-02,    3.1250e-02
1.3907e+00,    2.8043e-02,    3.1250e-02
1.4036e+00,    2.8302e-02,    3.1250e-02
1.4166e+00,    2.8564e-02,    3.1250e-02
1.4297e+00,    2.8828e-02,    3.1250e-02
1.4429e+00,    2.9094e-02,    3.1250e-02
1.4563e+00,    2.9363e-02,    3.1250e-02
1.4698e+00,    2.9634e-02,    3.1250e-02
1.4834e+00,    2.9908e-02,    3.1250e-02
1.4971e+00,    3.0185e-02,    3.1250e-02
1.5110e+00,    3.0463e-02,    3.1250e-02
1.5250e+00,    3.0745e-02,    3.1250e-02
1.5391e+00,    3.1029e-02,    3.1250e-02
1.5533e+00,    3.1316e-02,    3.1250e-02
1.5677e+00,    3.1605e-02,    3.1250e-02
1.5822e+00,    3.1897e-02,    3.1250e-02
1.5969e+00,    3.2191e-02,    3.1250e-02
1.6117e+00,    3.2489e-02,    3.1250e-02
1.6266e+00,    3.2789e-02,    3.1250e-02
1.6417e+00,    3.3092e-02,    3.1250e-02
1.6569e+00,    3.3397e-02,    3.1250e-02
1.6722e+00,    3.3706e-02,    3.1250e-02
1.6877e+00,    3.4017e-02,    3.1250e-02
1.7033e+00,    3.4331e-02,    3.1250e-02
1.7191e+00,    3.4648e-02,    3.1250e-02
1.7350e+00,    3.4968e-02,    3.1250e-02
1.7511e+00,    3.5291e-02,    3.1250e-02
1.7673e+00,    3.5617e-02,    3.1250e-02
1.7836e+00,    3.5946e-02,    3.1250e-02
1.8001e+00,    3.6278e-02,    3.1250e-02
1.8168e+00,    3.6612e-02,    3.1250e-02
1.8336e+00,    3.6950e-02,    3.1250e-02
1.8506e+00,    3.7291e-02,    3.1250e-02
1.8677e+00,    3.7636e-02,    3.1250e-02
1.8850e+00,    3.7983e-02,    3.1250e-02
1.9025e+00,    3.8334e-02,    3.1250e-02
1.9201e+00,    3.8687e-02,    3.1250e-02
1.9379e+00,    3.9044e-02,    3.1250e-02
1.9558e+00,    3.9404e-02,    3.1250e-02
1.9739e+00,    3.9768e-02,    3.1250e-02
1.9922e+00,    4.0135e-02,    3.1250e-02
2.0107e+00,    4.0505e-02,    3.1250e-02
2.0293e+00,    4.0879e-02,    3.1250e-02
2.0481e+00,    4.1256e-02,    3.1250e-02
2.0670e+00,    4.1636e-02,    3.1250e-02
2.0862e+00,    4.2020e-02,    3.1250e-02
2.1055e+00,    4.2408e-02,    3.1250e-02
2.1250e+00,    4.2799e-02,    3.1250e-02
2.1446e+00,    4.3194e-02,    3.1250e-02
2.1645e+00,    4.3592e-02,    3.1250e-02
2.1845e+00,    4.3994e-02,    3.1250e-02
2.2048e+00,    4.4399e-02,    3.1250e-02
2.2252e+00,    4.4808e-02,    3.1250e-02
2.2458e+00,    4.5221e-02,    3.1250e-02
2.2666e+00,    4.5638e-02,    3.1250e-02
2.2876e+00,    4.6059e-02,    3.1250e-02
2.3087e+00,    4.6483e-02,    3.1250e-02
2.3301e+00,    4.6911e-02,    3.1250e-02
2.3517e+00,    4.7344e-02,    3.1250e-02
2.3735e+00,    4.7780e-02,    3.1250e-02
2.3954e+00,    4.8220e-02,    3.1250e-02
2.4176e+00,    4.8664e-02,    3.1250e-02
2.4400e+00,    4.9112e-02,    3.1250e-02
2.4626e+00,    4.9564e-02,    3.1250e-02
2.4854e+00,    5.0021e-02,    3.1250e-02
2.5084e+00,    5.0481e-02,    3.1250e-02
2.5316e+00,    5.0946e-02,    3.1250e-02
2.5551e+00,    5.1415e-02,    3.1250e-02
2.5787e+00,    5.1888e-02,    3.1250e-02
2.6026e+00,    5.2366e-02,    3.1250e-02
2.6267e+00,    5.2847e-02,    3.1250e-02
2.6510e+00,    5.3334e-02,    3.1250e-02
2.6756e+00,    5.3824e-02,    3.1250e-02
2.7003e+00,    5.4319e-02,    3.1250e-02
2.7253e+00,    5.4819e-02,    3.1250e-02
2.7506e+00,    5.5323e-02,    3.1250e-02
2.7760e+00,    5.5832e-02,    3.1250e-02
2.8017e+00,    5.6345e-02,    3.1250e-02
2.8277e+00,    5.6863e-02,    3.1250e-02
2.8539e+00,    5.7386e-02,    3.1250e-02
2.8803e+00,    5.7913e-02,    3.1250e-02
2.9069e+00,    5.8445e-02,    3.1250e-02
2.9339e+00,    5.8982e-02,    3.1250e-02
2.9610e+00,    5.9524e-02,    3.1250e-02
2.9884e+00,    6.0071e-02,    3.1250e-02
3.0161e+00,    6.0622e-02,    3.1250e-02
3.0440e+00,    6.1179e-02,    3.1250e-02
3.0722e+00,    6.1741e-02,    3.1250e-02
3.1007e+00,    6.2307e-02,    3.1250e-02
3.1294e+00,    6.2879e-02,    3.1250e-02
3.1583e+00,    6.3456e-02,    3.1250e-02
3.1876e+00,    6.4038e-02,    3.1250e-02
3.2171e+00,    6.4626e-02,    3.1250e-02
3.2469e+00,    6.5218e-02,    3.1250e-02
3.2769e+00,    6.5817e-02,    3.1250e-02
3.3073e+00,    6.6420e-02,    3.1250e-02
3.3379e+00,    6.7029e-02,    3.1250e-02
3.3688e+00,    6.7643e-02,    3.1250e-02
3.4000e+00,    6.8263e-02,    3.1250e-02
3.4315e+00,    6.8888e-02,    3.1250e-02
3.4633e+00,    6.9519e-02,    3.1250e-02
3.4953e+00,    7.0156e-02,    3.1250e-02
3.5277e+00,    7.0798e-02,    3.1250e-02
3.5603e+00,    7.1446e-02,    3.1250e-02
3.5933e+00,    7.2100e-02,    3.1250e-02
3.6266e+00,    7.2760e-02,    3.1250e-02
3.6602e+00,    7.3426e-02,    3.1250e-02
3.6940e+00,    7.4097e-02,    3.1250e-02
3.7282e+00,    7.4775e-02,    3.1250e-02
3.7628e+00,    7.5458e-02,    3.1250e-02
3.7976e+00,    7.6148e-02,    3.1250e-02
3.8328e+00,    7.6844e-02,    3.1250e-02
3.8682e+00,    7.7546e-02,    3.1250e-02
3.9041e+00,    7.8254e-02,    3.1250e-02
3.9402e+00,    7.8969e-02,    3.1250e-02
3.9767e+00,    7.9690e-02,    3.1250e-02
4.0135e+00,    8.0417e-02,    3.1250e-02
4.0507e+00,    8.1151e-02,    3.1250e-02
4.0882e+00,    8.1891e-02,    3.1250e-02
4.1260e+00,    8.2638e-02,    3.1250e-02
4.1642e+00,    8.3391e-02,    3.1250e-02
4.2028e+00,    8.4151e-02,    3.1250e-02
4.2417e+00,    8.4918e-02,    3.1250e-02
4.2810e+00,    8.5691e-02,    3.1250e-02
4.3206e+00,    8.6471e-02,    3.1250e-02
4.3606e+00,    8.7259e-02,    3.1250e-02
4.4010e+00,    8.8053e-02,    3.1250e-02
4.4417e+00,    8.8854e-02,    3.1250e-02
4.4829e+00,    8.9662e-02,    3.1250e-02
4.5244e+00,    9.0477e-02,    3.1250e-02
4.5662e+00,    9.1299e-02,    3.1250e-02
4.6085e+00,    9.2129e-02,    3.1250e-02
4.6512e+00,    9.2965e-02,    3.1250e-02
4.6943e+00,    9.3809e-02,    3.1250e-02
4.7377e+00,    9.4661e-02,    3.1250e-02
4.7816e+00,    9.5520e-02,    3.1250e-02
4.8259e+00,    9.6386e-02,    3.1250e-02
4.8705e+00,    9.7260e-02,    3.1250e-02
4.9156e+00,    9.8141e-02,    3.1250e-02
4.9611e+00,    9.9030e-02,    3.1250e-02
5.0071e+00,    9.9927e-02,    3.1250e-02
5.0534e+00,    1.0083e-01,    3.1250e-02
5.1002e+00,    1.0174e-01,    3.1250e-02
5.1474e+00,    1.0266e-01,    3.1250e-02
5.1951e+00,    1.0359e-01,    3.1250e-02
5.2432e+00,    1.0453e-01,    3.1250e-02
5.2918e+00,    1.0547e-01,    3.1250e-02
5.3407e+00,    1.0642e-01,    3.1250e-02
5.3902e+00,    1.0738e-01,    3.1250e-02
5.4401e+00,    1.0835e-01,    3.1250e-02
5.4905e+00,    1.0933e-01,    3.1250e-02
5.5413e+00,    1.1031e-01,    3.1250e-02
5.5926e+00,    1.1131e-01,    3.1250e-02
5.6444e+00,    1.1231e-01,    3.1250e-02
5.6966e+00,    1.1332e-01,    3.1250e-02
5.7494e+00,    1.1434e-01,    3.1250e-02
5.8026e+00,    1.1537e-01,    3.1250e-02
5.8563e+00,    1.1640e-01,    3.1250e-02
5.9106e+00,    1.1745e-01,    3.1250e-02
5.9653e+00,    1.1850e-01,    3.1250e-02
6.0205e+00,    1.1956e-01,    3.1250e-02
6.0763e+00,    1.2064e-01,    3.1250e-02
6.1325e+00,    1.2172e-01,    3.1250e-02
6.1893e+00,    1.2281e-01,    3.1250e-02
6.2466e+00,    1.2390e-01,    3.1250e-02
6.3044e+00,    1.2501e-01,    3.1250e-02
6.3628e+00,    1.2613e-01,    3.1250e-02
6.4217e+00,    1.2725e-01,    3.1250e-02
6.4812e+00,    1.2839e-01,    3.1250e-02
6.5412e+00,    1.2954e-01,    3.1250e-02
6.6018e+00,    1.3069e-01,    3.1250e-02
6.6629e+00,    1.3185e-01,    3.1250e-02
6.7246e+00,    1.3303e-01,    3.1250e-02
6.7868e+00,    1.3421e-01,    3.1250e-02
6.8497e+00,    1.3540e-01,    3.1250e-02
6.9131e+00,    1.3660e-01,    3.1250e-02
6.9771e+00,    1.3782e-01,    3.1250e-02
7.0417e+00,    1.3904e-01,    3.1250e-02
7.1069e+00,    1.4027e-01,    3.1250e-02
7.1727e+00,    1.4151e-01,    3.1250e-02
7.2391e+00,    1.4276e-01,    3.1250e-02
7.3061e+00,    1.4402e-01,    3.1250e-02
7.3738e+00,    1.4530e-01,    3.1250e-02
7.4420e+00,    1.4658e-01,    3.1250e-02
7.5109e+00,    1.4787e-01,    3.1250e-02
7.5805e+00,    1.4917e-01,    3.1250e-02
7.6507e+00,    1.5048e-01,    3.1250e-02
7.7215e+00,    1.5181e-01,    3.1250e-02
7.7930e+00,    1.5314e-01,    3.1250e-02
7.8651e+00,    1.5448e-01,    3.1250e-02
7.9380e+00,    1.5584e-01,    3.1250e-02
8.0115e+00,    1.5720e-01,    3.1250e-02
8.0856e+00,    1.5858e-01,    3.1250e-02
8.1605e+00,    1.5996e-01,    3.1250e-02
8.2361e+00,    1.6136e-01,    3.1250e-02
8.3123e+00,    1.6277e-01,    3.1250e-02
8.3893e+00,    1.6418e-01,    3.1250e-02
8.4669e+00,    1.6561e-01,    3.1250e-02
8.5453e+00,    1.6705e-01,    3.1250e-02
8.6245e+00,    1.6850e-01,    3.1250e-02
8.7043e+00,    1.6996e-01,    3.1250e-02
8.7849e+00,    1.7144e-01,    3.1250e-02
8.8662e+00,    1.7292e-01,    3.1250e-02
8.9483e+00,    1.7441e-01,    3.1250e-02
9.0312e+00,    1.7592e-01,    3.1250e-02
9.1148e+00,    1.7744e-01,    3.1250e-02
9.1992e+00,    1.7896e-01,    3.1250e-02
9.2844e+00,    1.8050e-01,    3.1250e-02
9.3703e+00,    1.8205e-01,    3.1250e-02
9.4571e+00,    1.8361e-01,    3.1250e-02
9.5446e+00,    1.8519e-01,    3.1250e-02
9.6330e+00,    1.8677e-01,    3.1250e-02
9.7222e+00,    1.8837e-01,    3.1250e-02
9.8122e+00,    1.8997e-01,    3.1250e-02
9.9031e+00,    1.9159e-01,    3.1250e-02
9.9947e+00,    1.9322e-01,    3.1250e-02
1.0087e+01,    1.9486e-01,    3.1250e-02
1.0181e+01,    1.9651e-01,    3.1250e-02
1.0275e+01,    1.9818e-01,    3.1250e-02
1.0370e+01,    1.9985e-01,    3.1250e-02
1.0466e+01,    2.0154e-01,    3.1250e-02
1.0563e+01,    2.0324e-01,    3.1250e-02
1.0661e+01,    2.0495e-01,    3.1250e-02
1.0759e+01,    2.0667e-01,    3.1250e-02
1.0859e+01,    2.0840e-01,    3.1250e-02
1.0960e+01,    2.1014e-01,    3.1250e-02
1.1061e+01,    2.1190e-01,    3.1250e-02
1.1164e+01,    2.1367e-01,    3.1250e-02
1.1267e+01,    2.1545e-01,    3.1250e-02
1.1371e+01,    2.1724e-01,    3.1250e-02
1.1476e+01,    2.1904e-01,    3.1250e-02
1.1583e+01,    2.2085e-01,    3.1250e-02
1.1690e+01,    2.2268e-01,    3.1250e-02
1.1798e+01,    2.2451e-01,    3.1250e-02
1.1907e+01,    2.2636e-01,    3.1250e-02
1.2018e+01,    2.2822e-01,    3.1250e-02
1.2129e+01,    2.3009e-01,    3.1250e-02
1.2241e+01,    2.3197e-01,    3.1250e-02
1.2355e+01,    2.3386e-01,    3.1250e-02
1.2469e+01,    2.3577e-01,    3.1250e-02
1.2584e+01,    2.3768e-01,    3.1250e-02
1.2701e+01,    2.3961e-01,    3.1250e-02
1.2819e+01,    2.4155e-01,    3.1250e-02
1.2937e+01,    2.4350e-01,    3.1250e-02
1.3057e+01,    2.4546e-01,    3.1250e-02
1.3178e+01,    2.4743e-01,    3.1250e-02
1.3300e+01,    2.4942e-01,    3.1250e-02
1.3423e+01,    2.5141e-01,    3.1250e-02
1.3547e+01,    2.5342e-01,    3.1250e-02
1.3673e+01,    2.5543e-01,    3.1250e-02
1.3799e+01,    2.5746e-01,    3.1250e-02
1.3927e+01,    2.5950e-01,    3.1250e-02
1.4056e+01,    2.6155e-01,    3.1250e-02
1.4186e+01,    2.6361e-01,    3.1250e-02
1.4318e+01,    2.6568e-01,    3.1250e-02
