# Force βfL, Extension z/L, Persistence Length λ
1.1646e-02,    3.3084e-03,    2.0000e+00
1.1754e-02,    3.3390e-03,    2.0000e+00
1.1863e-02,    3.3700e-03,    2.0000e+00
1.1973e-02,    3.4013e-03,    2.0000e+00
1.2084e-02,    3.4326e-03,    2.0000e+00
1.2195e-02,    3.4644e-03,    2.0000e+00
1.2308e-02,    3.4966e-03,    2.0000e+00
1.2422e-02,    3.5289e-03,    2.0000e+00
1.2537e-02,    3.5615e-03,    2.0000e+00
1.2653e-02,    3.5946e-03,    2.0000e+00
1.2771e-02,    3.6278e-03,    2.0000e+00
1.2889e-02,    3.6614e-03,    2.0000e+00
1.3008e-02,    3.6953e-03,    2.0000e+00
1.3129e-02,    3.7296e-03,    2.0000e+00
1.3250e-02,    3.7641e-03,    2.0000e+00
1.3373e-02,    3.7989e-03,    2.0000e+00
1.3497e-02,    3.8342e-03,    2.0000e+00
1.3622e-02,    3.8695e-03,    2.0000e+00
1.3748e-02,    3.9054e-03,    2.0000e+00
1.3875e-02,    3.9416e-03,    2.0000e+00
1.4003e-02,    3.9780e-03,    2.0000e+00
1.4133e-02,    4.0149e-03,    2.0000e+00
1.4264e-02,    4.0522e-03,    2.0000e+00
1.4396e-02,    4.0895e-03,    2.0000e+00
1.4529e-02,    4.1273e-03,    2.0000e+00
1.4664e-02,    4.1657e-03,    2.0000e+00
1.4800e-02,    4.2042e-03,    2.0000e+00
1.4937e-02,    4.2432e-03,    2.0000e+00
1.5075e-02,    4.2824e-03,    2.0000e+00
1.5214e-02,    4.3220e-03,    2.0000e+00
1.5355e-02,    4.3622e-03,    2.0000e+00
1.5497e-02,    4.4024e-03,    2.0000e+00
1.5641e-02,    4.4431e-03,    2.0000e+00
1.5786e-02,    4.4845e-03,    2.0000e+00
1.5932e-02,    4.5260e-03,    2.0000e+00
1.6079e-02,    4.5678e-03,    2.0000e+00
1.6228e-02,    4.6101e-03,    2.0000e+00
1.6379e-02,    4.6528e-03,    2.0000e+00
1.6530e-02,    4.6959e-03,    2.0000e+00
1.6683e-02,    4.7394e-03,    2.0000e+00
1.6838e-02,    4.7833e-03,    2.0000e+00
1.6994e-02,    4.8274e-03,    2.0000e+00
1.7151e-02,    4.8721e-03,    2.0000e+00
1.7310e-02,    4.9174e-03,    2.0000e+00
1.7470e-02,    4.9628e-03,    2.0000e+00
1.7632e-02,    5.0087e-03,    2.0000e+00
1.7795e-02,    5.0552e-03,    2.0000e+00
1.7960e-02,    5.1019e-03,    2.0000e+00
1.8126e-02,    5.1491e-03,    2.0000e+00
1.8294e-02,    5.1969e-03,    2.0000e+00
1.8463e-02,    5.2449e-03,    2.0000e+00
1.8634e-02,    5.2935e-03,    2.0000e+00
1.8807e-02,    5.3426e-03,    2.0000e+00
1.8981e-02,    5.3920e-03,    2.0000e+00
1.9157e-02,    5.4419e-03,    2.0000e+00
1.9334e-02,    5.4924e-03,    2.0000e+00
1.9513e-02,    5.5431e-03,    2.0000e+00
1.9694e-02,    5.5944e-03,    2.0000e+00
1.9876e-02,    5.6462e-03,    2.0000e+00
2.0060e-02,    5.6985e-03,    2.0000e+00
2.0246e-02,    5.7513e-03,    2.0000e+00
2.0433e-02,    5.8046e-03,    2.0000e+00
2.0622e-02,    5.8582e-03,    2.0000e+00
2.0813e-02,    5.9125e-03,    2.0000e+00
2.1006e-02,    5.9673e-03,    2.0000e+00
2.1200e-02,    6.0225e-03,    2.0000e+00
2.1397e-02,    6.0782e-03,    2.0000e+00
2.1595e-02,    6.1346e-03,    2.0000e+00
2.1795e-02,    6.1913e-03,    2.0000e+00
2.1997e-02,    6.2486e-03,    2.0000e+00
2.2200e-02,    6.3065e-03,    2.0000e+00
2.2406e-02,    6.3648e-03,    2.0000e+00
2.2613e-02,    6.4238e-03,    2.0000e+00
2.2823e-02,    6.4833e-03,    2.0000e+00
2.3034e-02,    6.5433e-03,    2.0000e+00
2.3247e-02,    6.6039e-03,    2.0000e+00
2.3462e-02,    6.6650e-03,    2.0000e+00
2.3680e-02,    6.7268e-03,    2.0000e+00
2.3899e-02,    6.7891e-03,    2.0000e+00
2.4120e-02,    6.8519e-03,    2.0000e+00
2.4344e-02,    6.9153e-03,    2.0000e+00
2.4569e-02,    6.9793e-03,    2.0000e+00
2.4796e-02,    7.0440e-03,    2.0000e+00
2.5026e-02,    7.1092e-03,    2.0000e+00
2.5258e-02,    7.1750e-03,    2.0000e+00
2.5492e-02,    7.2414e-03,    2.0000e+00
2.5728e-02,    7.3084e-03,    2.0000e+00
2.5966e-02,    7.3761e-03,    2.0000e+00
2.6206e-02,    7.4444e-03,    2.0000e+00
2.6449e-02,    7.5134e-03,    2.0000e+00
2.6694e-02,    7.5829e-03,    2.0000e+00
2.6941e-02,    7.6531e-03,    2.0000e+00
2.7190e-02,    7.7239e-03,    2.0000e+00
2.7442e-02,    7.7954e-03,    2.0000e+00
2.7696e-02,    7.8676e-03,    2.0000e+00
2.7953e-02,    7.9404e-03,    2.0000e+00
2.8211e-02,    8.0140e-03,    2.0000e+00
2.8473e-02,    8.0881e-03,    2.0000e+00
2.8736e-02,    8.1630e-03,    2.0000e+00
2.9002e-02,    8.2386e-03,    2.0000e+00
2.9271e-02,    8.3149e-03,    2.0000e+00
2.9542e-02,    8.3918e-03,    2.0000e+00
2.9815e-02,    8.4696e-03,    2.0000e+00
3.0091e-02,    8.5479e-03,    2.0000e+00
3.0370e-02,    8.6271e-03,    2.0000e+00
3.0651e-02,    8.7069e-03,    2.0000e+00
3.0935e-02,    8.7876e-03,    2.0000e+00
3.1221e-02,    8.8689e-03,    2.0000e+00
3.1510e-02,    8.9510e-03,    2.0000e+00
3.1802e-02,    9.0339e-03,    2.0000e+00
3.2097e-02,    9.1175e-03,    2.0000e+00
3.2394e-02,    9.2019e-03,    2.0000e+00
3.2694e-02,    9.2871e-03,    2.0000e+00
3.2996e-02,    9.3731e-03,    2.0000e+00
3.3302e-02,    9.4599e-03,    2.0000e+00
3.3610e-02,    9.5474e-03,    2.0000e+00
3.3921e-02,    9.6358e-03,    2.0000e+00
3.4235e-02,    9.7250e-03,    2.0000e+00
3.4552e-02,    9.8150e-03,    2.0000e+00
3.4872e-02,    9.9060e-03,    2.0000e+00
3.5195e-02,    9.9976e-03,    2.0000e+00
3.5521e-02,    1.0090e-02,    2.0000e+00
3.5850e-02,    1.0184e-02,    2.0000e+00
3.6182e-02,    1.0278e-02,    2.0000e+00
3.6517e-02,    1.0373e-02,    2.0000e+00
3.6855e-02,    1.0469e-02,    2.0000e+00
3.7196e-02,    1.0566e-02,    2.0000e+00
3.7541e-02,    1.0664e-02,    2.0000e+00
3.7888e-02,    1.0762e-02,    2.0000e+00
3.8239e-02,    1.0862e-02,    2.0000e+00
3.8593e-02,    1.0963e-02,    2.0000e+00
3.8950e-02,    1.1064e-02,    2.0000e+00
3.9311e-02,    1.1167e-02,    2.0000e+00
3.9675e-02,    1.1270e-02,    2.0000e+00
4.0042e-02,    1.1374e-02,    2.0000e+00
4.0413e-02,    1.1480e-02,    2.0000e+00
4.0787e-02,    1.1586e-02,    2.0000e+00
4.1165e-02,    1.1693e-02,    2.0000e+00
4.1546e-02,    1.1801e-02,    2.0000e+00
4.1931e-02,    1.1911e-02,    2.0000e+00
4.2319e-02,    1.2021e-02,    2.0000e+00
4.2711e-02,    1.2132e-02,    2.0000e+00
4.3106e-02,    1.2244e-02,    2.0000e+00
4.3505e-02,    1.2358e-02,    2.0000e+00
4.3908e-02,    1.2472e-02,    2.0000e+00
4.4315e-02,    1.2588e-02,    2.0000e+00
4.4725e-02,    1.2704e-02,    2.0000e+00
4.5139e-02,    1.2822e-02,    2.0000e+00
4.5557e-02,    1.2940e-02,    2.0000e+00
4.5979e-02,    1.3060e-02,    2.0000e+00
4.6404e-02,    1.3181e-02,    2.0000e+00
4.6834e-02,    1.3303e-02,    2.0000e+00
4.7268e-02,    1.3426e-02,    2.0000e+00
4.7705e-02,    1.3550e-02,    2.0000e+00
4.8147e-02,    1.3676e-02,    2.0000e+00
4.8593e-02,    1.3802e-02,    2.0000e+00
4.9043e-02,    1.3930e-02,    2.0000e+00
4.9497e-02,    1.4059e-02,    2.0000e+00
4.9955e-02,    1.4189e-02,    2.0000e+00
5.0417e-02,    1.4321e-02,    2.0000e+00
5.0884e-02,    1.4453e-02,    2.0000e+00
5.1355e-02,    1.4587e-02,    2.0000e+00
5.1831e-02,    1.4722e-02,    2.0000e+00
5.2311e-02,    1.4858e-02,    2.0000e+00
5.2795e-02,    1.4996e-02,    2.0000e+00
5.3284e-02,    1.5135e-02,    2.0000e+00
5.3777e-02,    1.5275e-02,    2.0000e+00
5.4275e-02,    1.5416e-02,    2.0000e+00
5.4778e-02,    1.5559e-02,    2.0000e+00
5.5285e-02,    1.5703e-02,    2.0000e+00
5.5797e-02,    1.5848e-02,    2.0000e+00
5.6313e-02,    1.5995e-02,    2.0000e+00
5.6835e-02,    1.6143e-02,    2.0000e+00
5.7361e-02,    1.6292e-02,    2.0000e+00
5.7892e-02,    1.6443e-02,    2.0000e+00
5.8428e-02,    1.6595e-02,    2.0000e+00
5.8969e-02,    1.6749e-02,    2.0000e+00
5.9515e-02,    1.6904e-02,    2.0000e+00
6.0066e-02,    1.7060e-02,    2.0000e+00
6.0622e-02,    1.7218e-02,    2.0000e+00
6.1183e-02,    1.7377e-02,    2.0000e+00
6.1750e-02,    1.7538e-02,    2.0000e+00
6.2322e-02,    1.7701e-02,    2.0000e+00
6.2899e-02,    1.7864e-02,    2.0000e+00
6.3481e-02,    1.8030e-02,    2.0000e+00
6.4069e-02,    1.8197e-02,    2.0000e+00
6.4662e-02,    1.8365e-02,    2.0000e+00
6.5261e-02,    1.8535e-02,    2.0000e+00
6.5865e-02,    1.8706e-02,    2.0000e+00
6.6475e-02,    1.8880e-02,    2.0000e+00
6.7090e-02,    1.9054e-02,    2.0000e+00
6.7711e-02,    1.9231e-02,    2.0000e+00
6.8338e-02,    1.9409e-02,    2.0000e+00
6.8971e-02,    1.9588e-02,    2.0000e+00
6.9610e-02,    1.9769e-02,    2.0000e+00
7.0254e-02,    1.9952e-02,    2.0000e+00
7.0904e-02,    2.0137e-02,    2.0000e+00
7.1561e-02,    2.0323e-02,    2.0000e+00
7.2224e-02,    2.0511e-02,    2.0000e+00
7.2892e-02,    2.0701e-02,    2.0000e+00
7.3567e-02,    2.0893e-02,    2.0000e+00
7.4248e-02,    2.1086e-02,    2.0000e+00
7.4936e-02,    2.1281e-02,    2.0000e+00
7.5629e-02,    2.1478e-02,    2.0000e+00
7.6330e-02,    2.1677e-02,    2.0000e+00
7.7036e-02,    2.1877e-02,    2.0000e+00
7.7750e-02,    2.2080e-02,    2.0000e+00
7.8470e-02,    2.2284e-02,    2.0000e+00
7.9196e-02,    2.2490e-02,    2.0000e+00
7.9929e-02,    2.2698e-02,    2.0000e+00
8.0669e-02,    2.2908e-02,    2.0000e+00
8.1416e-02,    2.3120e-02,    2.0000e+00
8.2170e-02,    2.3334e-02,    2.0000e+00
8.2931e-02,    2.3550e-02,    2.0000e+00
8.3699e-02,    2.3768e-02,    2.0000e+00
8.4474e-02,    2.3988e-02,    2.0000e+00
8.5256e-02,    2.4210e-02,    2.0000e+00
8.6045e-02,    2.4434e-02,    2.0000e+00
8.6842e-02,    2.4660e-02,    2.0000e+00
8.7646e-02,    2.4888e-02,    2.0000e+00
8.8457e-02,    2.5118e-02,    2.0000e+00
8.9276e-02,    2.5350e-02,    2.0000e+00
9.0103e-02,    2.5585e-02,    2.0000e+00
9.0937e-02,    2.5822e-02,    2.0000e+00
9.1779e-02,    2.6060e-02,    2.0000e+00
9.2629e-02,    2.6301e-02,    2.0000e+00
9.3486e-02,    2.6545e-02,    2.0000e+00
9.4352e-02,    2.6790e-02,    2.0000e+00
9.5226e-02,    2.7038e-02,    2.0000e+00
9.6107e-02,    2.7288e-02,    2.0000e+00
9.6997e-02,    2.7541e-02,    2.0000e+00
9.7895e-02,    2.7795e-02,    2.0000e+00
9.8802e-02,    2.8052e-02,    2.0000e+00
9.9716e-02,    2.8312e-02,    2.0000e+00
1.0064e-01,    2.8574e-02,    2.0000e+00
1.0157e-01,    2.8838e-02,    2.0000e+00
1.0251e-01,    2.9105e-02,    2.0000e+00
1.0346e-01,    2.9374e-02,    2.0000e+00
1.0442e-01,    2.9645e-02,    2.0000e+00
1.0539e-01,    2.9919e-02,    2.0000e+00
1.0636e-01,    3.0196e-02,    2.0000e+00
1.0735e-01,    3.0475e-02,    2.0000e+00
1.0834e-01,    3.0757e-02,    2.0000e+00
1.0934e-01,    3.1042e-02,    2.0000e+00
1.1036e-01,    3.1329e-02,    2.0000e+00
1.1138e-01,    3.1618e-02,    2.0000e+00
1.1241e-01,    3.1911e-02,    2.0000e+00
1.1345e-01,    3.2206e-02,    2.0000e+00
1.1450e-01,    3.2503e-02,    2.0000e+00
1.1556e-01,    3.2804e-02,    2.0000e+00
1.1663e-01,    3.3107e-02,    2.0000e+00
1.1771e-01,    3.3413e-02,    2.0000e+00
1.1880e-01,    3.3722e-02,    2.0000e+00
1.1990e-01,    3.4034e-02,    2.0000e+00
1.2101e-01,    3.4348e-02,    2.0000e+00
1.2213e-01,    3.4666e-02,    2.0000e+00
1.2326e-01,    3.4986e-02,    2.0000e+00
1.2440e-01,    3.5310e-02,    2.0000e+00
1.2555e-01,    3.5636e-02,    2.0000e+00
1.2672e-01,    3.5965e-02,    2.0000e+00
1.2789e-01,    3.6298e-02,    2.0000e+00
1.2907e-01,    3.6633e-02,    2.0000e+00
1.3027e-01,    3.6972e-02,    2.0000e+00
1.3147e-01,    3.7313e-02,    2.0000e+00
1.3269e-01,    3.7658e-02,    2.0000e+00
1.3392e-01,    3.8006e-02,    2.0000e+00
1.3516e-01,    3.8357e-02,    2.0000e+00
1.3641e-01,    3.8712e-02,    2.0000e+00
1.3767e-01,    3.9069e-02,    2.0000e+00
1.3895e-01,    3.9430e-02,    2.0000e+00
1.4024e-01,    3.9795e-02,    2.0000e+00
1.4153e-01,    4.0162e-02,    2.0000e+00
1.4284e-01,    4.0533e-02,    2.0000e+00
1.4417e-01,    4.0908e-02,    2.0000e+00
1.4550e-01,    4.1285e-02,    2.0000e+00
1.4685e-01,    4.1667e-02,    2.0000e+00
1.4821e-01,    4.2052e-02,    2.0000e+00
1.4958e-01,    4.2440e-02,    2.0000e+00
1.5097e-01,    4.2832e-02,    2.0000e+00
1.5236e-01,    4.3227e-02,    2.0000e+00
1.5377e-01,    4.3627e-02,    2.0000e+00
1.5520e-01,    4.4029e-02,    2.0000e+00
1.5663e-01,    4.4436e-02,    2.0000e+00
1.5809e-01,    4.4846e-02,    2.0000e+00
1.5955e-01,    4.5260e-02,    2.0000e+00
1.6103e-01,    4.5678e-02,    2.0000e+00
1.6252e-01,    4.6100e-02,    2.0000e+00
1.6402e-01,    4.6525e-02,    2.0000e+00
1.6554e-01,    4.6955e-02,    2.0000e+00
1.6707e-01,    4.7388e-02,    2.0000e+00
1.6862e-01,    4.7826e-02,    2.0000e+00
1.7018e-01,    4.8267e-02,    2.0000e+00
1.7176e-01,    4.8712e-02,    2.0000e+00
1.7335e-01,    4.9162e-02,    2.0000e+00
1.7495e-01,    4.9616e-02,    2.0000e+00
1.7657e-01,    5.0073e-02,    2.0000e+00
1.7821e-01,    5.0535e-02,    2.0000e+00
1.7986e-01,    5.1002e-02,    2.0000e+00
1.8152e-01,    5.1472e-02,    2.0000e+00
1.8320e-01,    5.1947e-02,    2.0000e+00
1.8490e-01,    5.2426e-02,    2.0000e+00
1.8661e-01,    5.2909e-02,    2.0000e+00
1.8834e-01,    5.3397e-02,    2.0000e+00
1.9008e-01,    5.3890e-02,    2.0000e+00
1.9184e-01,    5.4387e-02,    2.0000e+00
1.9362e-01,    5.4888e-02,    2.0000e+00
1.9541e-01,    5.5394e-02,    2.0000e+00
1.9722e-01,    5.5905e-02,    2.0000e+00
1.9905e-01,    5.6420e-02,    2.0000e+00
2.0089e-01,    5.6940e-02,    2.0000e+00
2.0275e-01,    5.7465e-02,    2.0000e+00
2.0463e-01,    5.7995e-02,    2.0000e+00
2.0652e-01,    5.8529e-02,    2.0000e+00
2.0843e-01,    5.9068e-02,    2.0000e+00
2.1036e-01,    5.9612e-02,    2.0000e+00
2.1231e-01,    6.0162e-02,    2.0000e+00
2.1428e-01,    6.0716e-02,    2.0000e+00
2.1626e-01,    6.1275e-02,    2.0000e+00
2.1826e-01,    6.1839e-02,    2.0000e+00
2.2028e-01,    6.2409e-02,    2.0000e+00
2.2232e-01,    6.2984e-02,    2.0000e+00
2.2438e-01,    6.3563e-02,    2.0000e+00
2.2646e-01,    6.4149e-02,    2.0000e+00
2.2856e-01,    6.4739e-02,    2.0000e+00
2.3067e-01,    6.5335e-02,    2.0000e+00
2.3281e-01,    6.5936e-02,    2.0000e+00
2.3496e-01,    6.6543e-02,    2.0000e+00
2.3714e-01,    6.7155e-02,    2.0000e+00
2.3933e-01,    6.7773e-02,    2.0000e+00
2.4155e-01,    6.8396e-02,    2.0000e+00
2.4379e-01,    6.9026e-02,    2.0000e+00
2.4604e-01,    6.9660e-02,    2.0000e+00
2.4832e-01,    7.0301e-02,    2.0000e+00
2.5062e-01,    7.0947e-02,    2.0000e+00
2.5294e-01,    7.1600e-02,    2.0000e+00
2.5528e-01,    7.2258e-02,    2.0000e+00
2.5765e-01,    7.2922e-02,    2.0000e+00
2.6003e-01,    7.3592e-02,    2.0000e+00
2.6244e-01,    7.4268e-02,    2.0000e+00
2.6487e-01,    7.4950e-02,    2.0000e+00
2.6732e-01,    7.5639e-02,    2.0000e+00
2.6980e-01,    7.6333e-02,    2.0000e+00
2.7229e-01,    7.7034e-02,    2.0000e+00
2.7482e-01,    7.7742e-02,    2.0000e+00
2.7736e-01,    7.8455e-02,    2.0000e+00
2.7993e-01,    7.9175e-02,    2.0000e+00
2.8252e-01,    7.9902e-02,    2.0000e+00
2.8514e-01,    8.0635e-02,    2.0000e+00
2.8778e-01,    8.1375e-02,    2.0000e+00
2.9044e-01,    8.2121e-02,    2.0000e+00
2.9313e-01,    8.2874e-02,    2.0000e+00
2.9584e-01,    8.3634e-02,    2.0000e+00
2.9858e-01,    8.4401e-02,    2.0000e+00
3.0135e-01,    8.5175e-02,    2.0000e+00
3.0414e-01,    8.5955e-02,    2.0000e+00
3.0695e-01,    8.6743e-02,    2.0000e+00
3.0979e-01,    8.7537e-02,    2.0000e+00
3.1266e-01,    8.8339e-02,    2.0000e+00
3.1556e-01,    8.9148e-02,    2.0000e+00
3.1848e-01,    8.9964e-02,    2.0000e+00
3.2143e-01,    9.0788e-02,    2.0000e+00
3.2440e-01,    9.1618e-02,    2.0000e+00
3.2741e-01,    9.2457e-02,    2.0000e+00
3.3044e-01,    9.3302e-02,    2.0000e+00
3.3350e-01,    9.4156e-02,    2.0000e+00
3.3659e-01,    9.5016e-02,    2.0000e+00
3.3970e-01,    9.5885e-02,    2.0000e+00
3.4285e-01,    9.6761e-02,    2.0000e+00
3.4602e-01,    9.7645e-02,    2.0000e+00
3.4923e-01,    9.8537e-02,    2.0000e+00
3.5246e-01,    9.9437e-02,    2.0000e+00
3.5572e-01,    1.0035e-01,    2.0000e+00
3.5902e-01,    1.0126e-01,    2.0000e+00
3.6234e-01,    1.0218e-01,    2.0000e+00
3.6569e-01,    1.0312e-01,    2.0000e+00
3.6908e-01,    1.0406e-01,    2.0000e+00
3.7250e-01,    1.0501e-01,    2.0000e+00
3.7595e-01,    1.0596e-01,    2.0000e+00
3.7943e-01,    1.0693e-01,    2.0000e+00
3.8294e-01,    1.0790e-01,    2.0000e+00
3.8649e-01,    1.0889e-01,    2.0000e+00
3.9006e-01,    1.0988e-01,    2.0000e+00
3.9368e-01,    1.1088e-01,    2.0000e+00
3.9732e-01,    1.1189e-01,    2.0000e+00
4.0100e-01,    1.1290e-01,    2.0000e+00
4.0471e-01,    1.1393e-01,    2.0000e+00
4.0846e-01,    1.1497e-01,    2.0000e+00
4.1224e-01,    1.1601e-01,    2.0000e+00
4.1606e-01,    1.1706e-01,    2.0000e+00
4.1991e-01,    1.1813e-01,    2.0000e+00
4.2380e-01,    1.1920e-01,    2.0000e+00
4.2772e-01,    1.2028e-01,    2.0000e+00
4.3168e-01,    1.2137e-01,    2.0000e+00
4.3568e-01,    1.2247e-01,    2.0000e+00
4.3971e-01,    1.2358e-01,    2.0000e+00
4.4378e-01,    1.2470e-01,    2.0000e+00
4.4789e-01,    1.2583e-01,    2.0000e+00
4.5204e-01,    1.2697e-01,    2.0000e+00
4.5622e-01,    1.2812e-01,    2.0000e+00
4.6045e-01,    1.2928e-01,    2.0000e+00
4.6471e-01,    1.3045e-01,    2.0000e+00
4.6901e-01,    1.3163e-01,    2.0000e+00
4.7336e-01,    1.3281e-01,    2.0000e+00
4.7774e-01,    1.3401e-01,    2.0000e+00
4.8216e-01,    1.3522e-01,    2.0000e+00
4.8663e-01,    1.3644e-01,    2.0000e+00
4.9113e-01,    1.3767e-01,    2.0000e+00
4.9568e-01,    1.3891e-01,    2.0000e+00
5.0027e-01,    1.4016e-01,    2.0000e+00
5.0490e-01,    1.4143e-01,    2.0000e+00
5.0958e-01,    1.4270e-01,    2.0000e+00
5.1429e-01,    1.4398e-01,    2.0000e+00
5.1906e-01,    1.4528e-01,    2.0000e+00
5.2386e-01,    1.4658e-01,    2.0000e+00
5.2871e-01,    1.4790e-01,    2.0000e+00
5.3361e-01,    1.4922e-01,    2.0000e+00
5.3855e-01,    1.5056e-01,    2.0000e+00
5.4353e-01,    1.5191e-01,    2.0000e+00
5.4857e-01,    1.5327e-01,    2.0000e+00
5.5365e-01,    1.5464e-01,    2.0000e+00
5.5877e-01,    1.5603e-01,    2.0000e+00
5.6394e-01,    1.5742e-01,    2.0000e+00
5.6917e-01,    1.5883e-01,    2.0000e+00
5.7444e-01,    1.6025e-01,    2.0000e+00
5.7975e-01,    1.6168e-01,    2.0000e+00
5.8512e-01,    1.6312e-01,    2.0000e+00
5.9054e-01,    1.6457e-01,    2.0000e+00
5.9601e-01,    1.6604e-01,    2.0000e+00
6.0153e-01,    1.6752e-01,    2.0000e+00
6.0709e-01,    1.6901e-01,    2.0000e+00
6.1272e-01,    1.7051e-01,    2.0000e+00
6.1839e-01,    1.7202e-01,    2.0000e+00
6.2411e-01,    1.7355e-01,    2.0000e+00
6.2989e-01,    1.7509e-01,    2.0000e+00
6.3572e-01,    1.7664e-01,    2.0000e+00
6.4161e-01,    1.7820e-01,    2.0000e+00
6.4755e-01,    1.7978e-01,    2.0000e+00
6.5355e-01,    1.8137e-01,    2.0000e+00
6.5960e-01,    1.8297e-01,    2.0000e+00
6.6570e-01,    1.8458e-01,    2.0000e+00
6.7187e-01,    1.8621e-01,    2.0000e+00
6.7809e-01,    1.8785e-01,    2.0000e+00
6.8437e-01,    1.8950e-01,    2.0000e+00
6.9070e-01,    1.9117e-01,    2.0000e+00
6.9710e-01,    1.9284e-01,    2.0000e+00
7.0355e-01,    1.9454e-01,    2.0000e+00
7.1007e-01,    1.9624e-01,    2.0000e+00
7.1664e-01,    1.9796e-01,    2.0000e+00
7.2328e-01,    1.9969e-01,    2.0000e+00
7.2997e-01,    2.0144e-01,    2.0000e+00
7.3673e-01,    2.0319e-01,    2.0000e+00
7.4355e-01,    2.0497e-01,    2.0000e+00
7.5044e-01,    2.0675e-01,    2.0000e+00
7.5738e-01,    2.0855e-01,    2.0000e+00
7.6440e-01,    2.1036e-01,    2.0000e+00
7.7147e-01,    2.1219e-01,    2.0000e+00
7.7862e-01,    2.1403e-01,    2.0000e+00
7.8583e-01,    2.1588e-01,    2.0000e+00
7.9310e-01,    2.1775e-01,    2.0000e+00
8.0045e-01,    2.1963e-01,    2.0000e+00
8.0786e-01,    2.2152e-01,    2.0000e+00
8.1534e-01,    2.2343e-01,    2.0000e+00
8.2288e-01,    2.2536e-01,    2.0000e+00
8.3050e-01,    2.2729e-01,    2.0000e+00
8.3819e-01,    2.2924e-01,    2.0000e+00
8.4595e-01,    2.3121e-01,    2.0000e+00
8.5379e-01,    2.3319e-01,    2.0000e+00
8.6169e-01,    2.3518e-01,    2.0000e+00
8.6967e-01,    2.3719e-01,    2.0000e+00
8.7772e-01,    2.3921e-01,    2.0000e+00
8.8585e-01,    2.4125e-01,    2.0000e+00
8.9405e-01,    2.4330e-01,    2.0000e+00
9.0233e-01,    2.4536e-01,    2.0000e+00
9.1068e-01,    2.4744e-01,    2.0000e+00
9.1911e-01,    2.4953e-01,    2.0000e+00
9.2762e-01,    2.5164e-01,    2.0000e+00
9.3621e-01,    2.5376e-01,    2.0000e+00
9.4488e-01,    2.5590e-01,    2.0000e+00
9.5363e-01,    2.5805e-01,    2.0000e+00
9.6246e-01,    2.6021e-01,    2.0000e+00
9.7137e-01,    2.6239e-01,    2.0000e+00
9.8036e-01,    2.6458e-01,    2.0000e+00
9.8944e-01,    2.6679e-01,    2.0000e+00
9.9860e-01,    2.6901e-01,    2.0000e+00
1.0078e+00,    2.7125e-01,    2.0000e+00
1.0172e+00,    2.7350e-01,    2.0000e+00
